              L	 1.500000e+00
           diam	 4.120000e-01
             Vp	 5.000000e-02
             Ap	 1.200000e+00
          rho_p	 1.007000e+03
          Tmelt	 4.420000e+01
           C_ps	 1.760000e+03
           C_pl	 2.270000e+03
             Hf	 2.116000e+05
             Ac	 1.200000e-01
             Tc	 1.000000e+02
          rho_w	 1.000000e+03
            C_w	 4.186000e+03
             hc	 1.000000e+03
             hp	 1.000000e+03
          Tinit	 4.000000e+01
          tstep	 1.000000e+01
         tfinal	 5.000000e+04
         AbsTol	 1.000000e-10
         RelTol	 1.000000e-10
             Vt	 1.999749e-01
             Mw	 1.499749e+02
          tau_w	 5.231626e+03
            eta	 1.000000e+01
             Mp	 5.035000e+01
         tau_ps	 7.384667e+01
         tau_pl	 9.524542e+01
       Ep_melt2	 3.721872e+05
         E_init	 3.721872e+05
       Ep_melt3	 1.065406e+07
       Mw_noPCM	 1.999749e+02
    tau_w_noPCM	 6.975792e+03

TIME			 TWATER			 TPCM			 ENERGY-PCM		 ENERGY-WATER		 ENERGY-TOTAL
0.000000		 40.000000		 40.000000		 0.000000		 0.000000		 0.000000
1.181496		 40.013533		 40.000108		 9.546767		 8496.263842		 8505.810609
2.362992		 40.027034		 40.000428		 37.953679		 16971.751119		 17009.704798
3.544488		 40.040502		 40.000958		 84.875269		 25426.811951		 25511.687219
4.725984		 40.053938		 40.001692		 149.972226		 33861.790221		 34011.762447
5.907479		 40.067342		 40.002628		 232.911393		 42277.023586		 42509.934979
7.088975		 40.080716		 40.003762		 333.365813		 50672.843423		 51006.209236
8.270471		 40.094059		 40.005090		 451.014389		 59049.575176		 59500.589565
9.451967		 40.107372		 40.006608		 585.541746		 67407.538495		 67993.080242
10.684389		 40.121228		 40.008390		 743.518721		 76106.093919		 76849.612640
11.916811		 40.135052		 40.010373		 919.179228		 84784.919008		 85704.098236
13.149232		 40.148845		 40.012551		 1112.184946		 93444.356693		 94556.541639
14.381654		 40.162608		 40.014921		 1322.203832		 102084.743544		 103406.947376
15.631976		 40.176541		 40.017517		 1552.324158		 110831.494466		 112383.818624
16.882297		 40.190443		 40.020304		 1799.286651		 119559.315079		 121358.601729
18.132618		 40.204316		 40.023278		 2062.764122		 128268.537054		 130331.301176
19.382940		 40.218160		 40.026434		 2342.435545		 136959.485825		 139301.921370
20.652448		 40.232186		 40.029821		 2642.643422		 145765.431611		 148408.075033
21.921956		 40.246184		 40.033390		 2958.898430		 154553.195624		 157512.094054
23.191464		 40.260154		 40.037136		 3290.883741		 163323.099066		 166613.982807
24.460972		 40.274095		 40.041057		 3638.288582		 172075.457005		 175713.745588
25.750258		 40.288225		 40.045213		 4006.574138		 180946.533739		 184953.107878
27.039544		 40.302328		 40.049541		 4390.136408		 189800.149722		 194190.286130
28.328831		 40.316404		 40.054038		 4788.668751		 198636.615856		 203425.284608
29.618117		 40.330452		 40.058701		 5201.870480		 207456.237021		 212658.107501
30.927817		 40.344696		 40.063604		 5636.330819		 216398.562217		 222034.893036
32.237517		 40.358913		 40.068671		 6085.321979		 225324.120050		 231409.442028
33.547217		 40.373105		 40.073898		 6548.547329		 234233.211308		 240781.758638
34.856917		 40.387270		 40.079283		 7025.716083		 243126.130868		 250151.846951
36.187696		 40.401637		 40.084912		 7524.552686		 252145.904438		 259670.457125
37.518474		 40.415979		 40.090697		 8037.198229		 261149.576748		 269186.774976
38.849252		 40.430296		 40.096635		 8563.365906		 270137.438658		 278700.804564
40.180030		 40.444587		 40.102722		 9102.774653		 279109.775221		 288212.549873
41.532582		 40.459088		 40.109058		 9664.293245		 288213.294216		 297877.587461
42.885134		 40.473564		 40.115543		 10238.922400		 297301.351086		 307540.273485
44.237686		 40.488016		 40.122172		 10826.384963		 306374.226945		 317200.611908
45.590238		 40.502445		 40.128943		 11426.409412		 315432.197207		 326858.606619
46.965293		 40.517089		 40.135969		 12049.019906		 324625.868818		 336674.888725
48.340348		 40.531710		 40.143135		 12684.065597		 333804.690770		 346488.756367
49.715403		 40.546307		 40.150439		 13331.278803		 342968.934611		 356300.213413
51.090458		 40.560882		 40.157877		 13990.397369		 352118.866292		 366109.263661
52.488782		 40.575680		 40.165575		 14672.613995		 361409.221939		 376081.835934
53.887105		 40.590456		 40.173407		 15366.612972		 370685.313995		 386051.926967
55.285429		 40.605209		 40.181368		 16072.135915		 379947.404622		 396019.540537
56.683752		 40.619941		 40.189457		 16788.929863		 389195.750488		 405984.680351
58.106148		 40.634904		 40.197813		 17529.371457		 398589.460590		 416118.832047
59.528543		 40.649845		 40.206294		 18280.964589		 407969.467022		 426250.431611
60.950938		 40.664765		 40.214899		 19043.459998		 417336.022738		 436379.482736
62.373333		 40.679663		 40.223623		 19816.613742		 426689.375303		 446505.989045
63.820644		 40.694802		 40.232622		 20614.004253		 436193.265514		 456807.269767
65.267955		 40.709920		 40.241739		 21421.937041		 445683.986058		 467105.923099
66.715265		 40.725016		 40.250972		 22240.171795		 455161.780854		 477401.952649
68.162576		 40.740093		 40.260320		 23068.473420		 464626.888541		 487695.361961
69.635690		 40.755418		 40.269947		 23921.642618		 474247.957059		 498169.599677
71.108804		 40.770723		 40.279687		 24784.765903		 483856.364190		 508641.130093
72.581919		 40.786009		 40.289537		 25657.611745		 493452.344996		 519109.956741
74.055033		 40.801274		 40.299494		 26539.953724		 503036.129364		 529576.083088
75.554884		 40.816798		 40.309739		 27447.838112		 512781.565387		 540229.403499
77.054736		 40.832302		 40.320090		 28365.108994		 522514.822753		 550879.931747
78.554588		 40.847786		 40.330545		 29291.543450		 532236.127842		 561527.671292
80.054440		 40.863253		 40.341100		 30226.923563		 541945.701964		 572172.625527
81.582014		 40.878986		 40.351952		 31188.567529		 551822.905579		 583011.473107
83.109587		 40.894700		 40.362903		 32159.050516		 561688.387859		 593847.438375
84.637161		 40.910396		 40.373952		 33138.158044		 571542.366677		 604680.524721
86.164735		 40.926075		 40.385096		 34125.680532		 581385.054941		 615510.735473
87.721069		 40.942030		 40.396545		 35140.237795		 591401.659082		 626541.896878
89.277403		 40.957967		 40.408088		 36163.106255		 601406.973914		 637570.080170
90.833737		 40.973887		 40.419722		 37194.079700		 611401.208975		 648595.288675
92.390071		 40.989789		 40.431445		 38232.956718		 621384.568943		 659617.525661
93.976262		 41.005979		 40.443483		 39299.692036		 631548.462784		 670848.154820
95.562452		 41.022151		 40.455609		 40374.229897		 641701.474120		 682075.704016
97.148642		 41.038307		 40.467820		 41456.372192		 651843.804326		 693300.176518
98.734832		 41.054445		 40.480116		 42545.925511		 661975.650024		 704521.575535
100.352037		 41.070883		 40.492735		 43664.216677		 672295.004305		 715959.220982
101.969241		 41.087304		 40.505437		 44789.820431		 682603.857698		 727393.678129
103.586445		 41.103708		 40.518220		 45922.546601		 692902.403593		 738824.950193
105.203650		 41.120096		 40.531080		 47062.209605		 703190.830726		 750253.040331
106.853093		 41.136795		 40.544276		 48231.549831		 713674.125632		 761905.675463
108.502536		 41.153477		 40.557549		 49407.730911		 724147.276083		 773555.006993
110.151980		 41.170144		 40.570897		 50590.570440		 734610.467650		 785201.038090
111.801423		 41.186795		 40.584318		 51779.890505		 745063.881359		 796843.771864
113.484403		 41.203768		 40.598085		 52999.891171		 755719.936862		 808719.828033
115.167382		 41.220727		 40.611924		 54226.278697		 766366.179105		 820592.457802
116.850362		 41.237669		 40.625834		 55458.878285		 777002.786014		 832461.664299
118.533341		 41.254597		 40.639811		 56697.519519		 787629.931077		 844327.450596
120.251232		 41.271861		 40.654147		 57967.913313		 798467.939779		 856435.853092
121.969123		 41.289109		 40.668550		 59244.257234		 809296.441080		 868540.698314
123.687013		 41.306343		 40.683019		 60526.383920		 820115.605435		 880641.989355
125.404904		 41.323562		 40.697550		 61814.130293		 830925.598962		 892739.729255
127.159166		 41.341131		 40.712453		 63134.774846		 841955.162363		 905089.937209
128.913427		 41.358685		 40.727419		 64460.949564		 852975.498734		 917436.448298
130.667688		 41.376224		 40.742445		 65792.494357		 863986.771228		 929779.265585
132.421950		 41.393750		 40.757530		 67129.253320		 874989.138766		 942118.392086
134.214133		 41.411639		 40.773000		 68500.135354		 886220.306973		 954720.442327
136.006316		 41.429515		 40.788527		 69876.143866		 897442.502814		 967318.646680
137.798498		 41.447377		 40.804111		 71257.125878		 908655.882313		 979913.008191
139.590681		 41.465224		 40.819750		 72642.932490		 919860.597367		 992503.529857
141.422436		 41.483452		 40.835788		 74064.172541		 931303.912787		 1005368.085328
143.254190		 41.501666		 40.851879		 75490.151162		 942738.484513		 1018228.635675
145.085944		 41.519866		 40.868023		 76920.722319		 954164.461613		 1031085.183932
146.917698		 41.538053		 40.884217		 78355.743954		 965581.989129		 1043937.733083
148.790782		 41.556636		 40.900826		 79827.601775		 977248.534757		 1057076.136531
150.663865		 41.575206		 40.917485		 81303.825521		 988906.539008		 1070210.364529
152.536949		 41.593762		 40.934191		 82784.275944		 1000556.144165		 1083340.420109
154.410032		 41.612306		 40.950944		 84268.817664		 1012197.488590		 1096466.306253
156.326319		 41.631263		 40.968129		 85791.698297		 1024098.940951		 1109890.639248
158.242607		 41.650207		 40.985359		 87318.586960		 1035992.027446		 1123310.614406
160.158894		 41.669138		 41.002633		 88849.351020		 1047876.883746		 1136726.234767
162.075182		 41.688057		 41.019950		 90383.861618		 1059753.641704		 1150137.503321
164.036676		 41.707408		 41.037717		 91958.322354		 1071902.329891		 1163860.652245
165.998171		 41.726746		 41.055525		 93536.447437		 1084042.800366		 1177579.247802
167.959665		 41.746072		 41.073374		 95118.110691		 1096175.182360		 1191293.293051
169.921160		 41.765384		 41.091261		 96703.189608		 1108299.601391		 1205002.790999
171.930004		 41.785150		 41.109618		 98329.947892		 1120708.572706		 1219038.520598
173.938848		 41.804903		 41.128013		 99960.040505		 1133109.446443		 1233069.486948
175.947692		 41.824644		 41.146445		 101593.347566		 1145502.345568		 1247095.693134
177.956537		 41.844372		 41.164911		 103229.752759		 1157887.389437		 1261117.142196
180.015026		 41.864574		 41.183869		 104909.695102		 1170570.481985		 1275480.177087
182.073516		 41.884764		 41.202860		 106592.654859		 1183245.568278		 1289838.223137
184.132005		 41.904941		 41.221885		 108278.518282		 1195912.765190		 1304191.283472
186.190495		 41.925106		 41.240940		 109967.175084		 1208572.186090		 1318539.361174
188.301093		 41.945769		 41.260510		 111701.367229		 1221544.110084		 1333245.477313
190.411691		 41.966419		 41.280111		 113438.272392		 1234508.089394		 1347946.361785
192.522290		 41.987056		 41.299740		 115177.782794		 1247464.234980		 1362642.017774
194.632888		 42.007682		 41.319398		 116919.794018		 1260412.654400		 1377332.448418
196.798243		 42.028829		 41.339594		 118709.492464		 1273689.082947		 1392398.575411
198.963598		 42.049964		 41.359818		 120501.611444		 1286957.597525		 1407459.208969
201.128953		 42.071087		 41.380067		 122296.048988		 1300218.303357		 1422514.352345
203.294308		 42.092197		 41.400342		 124092.706385		 1313471.302367		 1437564.008752
205.517271		 42.113857		 41.421181		 125939.371595		 1327068.974005		 1453008.345600
207.740233		 42.135504		 41.442044		 127788.176133		 1340658.730233		 1468446.906366
209.963196		 42.157138		 41.462930		 129639.023677		 1354240.670714		 1483879.694391
212.186159		 42.178760		 41.483838		 131491.821061		 1367814.891916		 1499306.712977
214.469804		 42.200960		 41.505339		 133397.132320		 1381751.724605		 1515148.856925
216.753450		 42.223147		 41.526861		 135304.312314		 1395680.606762		 1530984.919076
219.037095		 42.245321		 41.548403		 137213.270208		 1409601.632670		 1546814.902878
221.320741		 42.267483		 41.569964		 139123.918224		 1423514.893518		 1562638.811741
223.668393		 42.290254		 41.592148		 141089.790811		 1437810.114889		 1578899.905700
226.016045		 42.313012		 41.614350		 143057.271453		 1452097.315137		 1595154.586590
228.363696		 42.335757		 41.636570		 145026.274645		 1466376.583347		 1611402.857991
230.711348		 42.358489		 41.658806		 146996.717828		 1480648.005617		 1627644.723445
233.126605		 42.381864		 41.681698		 149025.322493		 1495322.299206		 1644347.621698
235.541862		 42.405225		 41.704605		 151055.283702		 1509988.463526		 1661043.747228
237.957119		 42.428574		 41.727527		 153086.521116		 1524646.582652		 1677733.103768
240.372375		 42.451909		 41.750462		 155118.957243		 1539296.737770		 1694415.695014
242.859142		 42.475923		 41.774090		 157212.742612		 1554372.409816		 1711585.152428
245.345909		 42.499924		 41.797730		 159307.641390		 1569439.804452		 1728747.445842
247.832675		 42.523911		 41.821382		 161403.578244		 1584499.000925		 1745902.579169
250.319442		 42.547886		 41.845045		 163500.480589		 1599550.075702		 1763050.556291
252.881965		 42.572577		 41.869439		 165662.198867		 1615051.244940		 1780713.443807
255.444488		 42.597255		 41.893843		 167824.794941		 1630543.945771		 1798368.740712
258.007011		 42.621920		 41.918256		 169988.198326		 1646028.252808		 1816016.451134
260.569534		 42.646571		 41.942678		 172152.341183		 1661504.237985		 1833656.579169
263.212442		 42.671982		 41.967873		 174385.077689		 1677457.052234		 1851842.129923
265.855350		 42.697379		 41.993076		 176618.462976		 1693401.160876		 1870019.623851
268.498258		 42.722762		 42.018286		 178852.431250		 1709336.634082		 1888189.065332
271.141166		 42.748132		 42.043501		 181086.919261		 1725263.539451		 1906350.458712
273.869517		 42.774307		 42.069537		 183394.126739		 1741696.425666		 1925090.552405
276.597867		 42.800468		 42.095578		 185701.759577		 1758120.318938		 1943822.078515
279.326218		 42.826615		 42.121623		 188009.756515		 1774535.285199		 1962545.041714
282.054568		 42.852748		 42.147672		 190318.058733		 1790941.387908		 1981259.446641
284.873901		 42.879738		 42.174591		 192703.596863		 1807885.338518		 2000588.935381
287.693234		 42.906713		 42.201514		 195089.341422		 1824819.954090		 2019909.295512
290.512566		 42.933673		 42.228438		 197475.235526		 1841745.296522		 2039220.532048
293.331899		 42.960618		 42.255363		 199861.224629		 1858661.425342		 2058522.649971
296.248300		 42.988476		 42.283215		 202329.406111		 1876150.330630		 2078479.736740
299.164700		 43.016318		 42.311068		 204797.578357		 1893629.498576		 2098427.076933
302.081101		 43.044145		 42.338919		 207265.688706		 1911098.987255		 2118364.675960
304.997501		 43.071956		 42.366770		 209733.686729		 1928558.852475		 2138292.539204
308.017673		 43.100741		 42.395609		 212289.331033		 1946629.886573		 2158919.217607
311.037844		 43.129510		 42.424447		 214844.752342		 1964690.714367		 2179535.466709
314.058016		 43.158262		 42.453280		 217399.902057		 1982741.390329		 2200141.292386
317.078187		 43.186998		 42.482111		 219954.733717		 2000781.966768		 2220736.700485
320.209537		 43.216776		 42.511998		 222603.230173		 2019476.038965		 2242079.269138
323.340886		 43.246536		 42.541881		 225251.290238		 2038159.361579		 2263410.651817
326.472236		 43.276279		 42.571758		 227898.869227		 2056831.985712		 2284730.854939
329.603585		 43.306005		 42.601629		 230545.924490		 2075493.960404		 2306039.884895
332.854324		 43.336847		 42.632632		 233293.306278		 2094856.242742		 2328149.549019
336.105062		 43.367671		 42.663628		 236040.036897		 2114207.148779		 2350247.185676
339.355800		 43.398476		 42.694616		 238786.075426		 2133546.726493		 2372332.801919
342.606538		 43.429264		 42.725596		 241531.382877		 2152875.021896		 2394406.404773
345.985799		 43.461250		 42.757791		 244384.414767		 2172955.572981		 2417339.987748
349.365059		 43.493216		 42.789977		 247236.577328		 2193024.026688		 2440260.604016
352.744319		 43.525164		 42.822152		 250087.833252		 2213080.428124		 2463168.261377
356.123579		 43.557092		 42.854317		 252938.147065		 2233124.820536		 2486062.967601
359.641559		 43.590311		 42.887790		 255904.429602		 2253979.324358		 2509883.753960
363.159538		 43.623509		 42.921251		 258869.618946		 2274820.902220		 2533690.521165
366.677518		 43.656686		 42.954700		 261833.681255		 2295649.596638		 2557483.277893
370.195497		 43.689843		 42.988135		 264796.584423		 2316465.448371		 2581262.032795
373.863626		 43.724394		 43.022983		 267884.678506		 2338156.095830		 2606040.774335
377.531754		 43.758922		 43.057816		 270971.447110		 2359832.865343		 2630804.312454
381.199883		 43.793428		 43.092634		 274056.859723		 2381495.797142		 2655552.656865
384.868011		 43.827913		 43.127436		 277140.887465		 2403144.929794		 2680285.817259
388.699154		 43.863906		 43.163768		 280360.463905		 2425741.475037		 2706101.938942
392.530297		 43.899876		 43.200082		 283578.470959		 2448323.047597		 2731901.518557
396.361440		 43.935822		 43.236378		 286794.881302		 2470889.685752		 2757684.567054
400.192583		 43.971744		 43.272656		 290009.669145		 2493441.426213		 2783451.095358
404.201289		 44.009306		 43.310595		 293371.689680		 2517022.462981		 2810394.152661
408.209994		 44.046842		 43.348514		 296731.881468		 2540587.265875		 2837319.147343
412.218700		 44.084352		 43.386411		 300090.220241		 2564135.871585		 2864226.091826
416.227405		 44.121836		 43.424288		 303446.683170		 2587668.315340		 2891114.998510
420.430203		 44.161107		 43.463975		 306963.621059		 2612322.830302		 2919286.451362
424.633001		 44.200351		 43.503639		 310478.450767		 2636959.654484		 2947438.105251
428.835799		 44.239566		 43.543278		 313991.150958		 2661578.823416		 2975569.974375
433.038597		 44.278753		 43.582894		 317501.701639		 2686180.371264		 3003682.072903
437.454371		 44.319896		 43.624490		 321187.812125		 2712009.646206		 3033197.458330
441.870144		 44.361008		 43.666059		 324871.509279		 2737819.541363		 3062691.050642
446.285917		 44.402089		 43.707601		 328552.774589		 2763610.091592		 3092162.866181
450.701691		 44.443140		 43.749115		 332231.590782		 2789381.330479		 3121612.921261
455.352132		 44.486338		 43.792805		 336103.245480		 2816501.291833		 3152604.537312
460.002574		 44.529503		 43.836465		 339972.149021		 2843599.906643		 3183572.055664
464.653015		 44.572634		 43.880093		 343838.285612		 2870677.209664		 3214515.495276
469.303457		 44.615731		 43.923689		 347701.640603		 2897733.234475		 3245434.875078
474.213644		 44.661198		 43.969687		 351777.745424		 2926277.387231		 3278055.132655
479.123831		 44.706628		 44.015649		 355850.719885		 2954797.891089		 3310648.610974
484.034018		 44.752020		 44.061575		 359920.550825		 2983294.781389		 3343215.332214
488.944205		 44.797374		 44.107466		 363987.226135		 3011768.092386		 3375755.318521
491.422325		 44.820250		 44.130613		 366038.432671		 3026129.330601		 3392167.763271
493.900444		 44.843116		 44.153751		 368088.831304		 3040484.575497		 3408573.406801
496.378564		 44.865973		 44.176880		 370138.420806		 3054833.831141		 3424972.251948
498.856684		 44.888820		 44.200000		 372187.200000		 3069177.101547		 3441364.301547
498.856684		 44.888820		 44.200000		 372187.200000		 3069177.101547		 3441364.301547
498.856686		 44.888820		 44.200000		 372187.202000		 3069177.115549		 3441364.317549
498.856689		 44.888820		 44.200000		 372187.204000		 3069177.129550		 3441364.333550
498.856691		 44.888820		 44.200000		 372187.206000		 3069177.143552		 3441364.349552
498.856694		 44.888820		 44.200000		 372187.208000		 3069177.157554		 3441364.365554
498.856706		 44.888820		 44.200000		 372187.218000		 3069177.227562		 3441364.445562
498.856718		 44.888820		 44.200000		 372187.228000		 3069177.297570		 3441364.525570
